# Cycle: 0, status: EXP, move: ('ld', 0, 0, 0)
#     Time      Potential        Kinetic
         0            nan            nan
         1            nan            nan
         2            nan            nan
         3            nan            nan
         4            nan            nan
         5            nan            nan
# Cycle: 1, status: EXP, move: ('sh', -0.1, 4, 0)
#     Time      Potential        Kinetic
         0      -0.019900       2.837384
         1      -0.028617       2.845633
         2      -0.045528       2.955652
         3      -0.070255       3.060524
         4      -0.104207       3.150874
         5      -0.147385       3.171826
         6      -0.199436       3.310076
         7      -0.260184       3.449348
         8      -0.329187       3.575824
         9      -0.406058       3.848395
        10      -0.489493       3.851661
        11      -0.576319       3.540513
        12      -0.666076       3.650245
        13      -0.757382       3.928497
        14      -0.846984       3.959527
        15      -0.932145       4.462344
        16      -1.008665       4.567038
        17      -1.072383       4.163476
        18      -1.121320       4.115880
        19      -1.149502       4.464929
        20      -1.151095       4.299339
        21      -1.126817       3.896760
        22      -1.082222       3.717081
        23      -1.007393       3.499693
        24      -0.910748       3.272296
        25      -0.794935       2.983555
        26      -0.667072       2.788166
        27      -0.525244       2.594985
        28      -0.380097       2.418143
        29      -0.224123       2.231339
        30      -0.069106       2.074677
        31       0.068181       1.965064
        32       0.177253       2.017839
        33       0.246956       1.934473
        34       0.268425       2.102484
        35       0.243763       2.273058
        36       0.190892       2.126788
        37       0.125541       2.082563
        38       0.027888       2.158091
        39      -0.113605       2.587780
        40      -0.293820       2.815617
        41      -0.505989       3.187229
        42      -0.721765       3.514801
        43      -0.938253       2.827294
        44      -1.122232       2.647606
        45      -1.309250       2.940122
        46      -1.487982       2.978502
        47      -1.646638       2.847299
        48      -1.782576       2.704488
        49      -1.898194       2.463733
        50      -1.989998       2.417891
        51      -2.058907       2.143934
        52      -2.117098       2.377340
        53      -2.159883       2.403801
        54      -2.184709       2.656189
        55      -2.194425       1.847222
        56      -2.196510       1.271548
        57      -2.194469       1.205802
        58      -2.191242       1.150394
        59      -2.190898       0.979202
        60      -2.194584       0.789649
        61      -2.205636       0.827275
        62      -2.218840       0.691466
        63      -2.237928       0.799053
        64      -2.257458       0.736783
        65      -2.288312       0.669637
        66      -2.322079       0.736887
        67      -2.356068       0.822732
        68      -2.388136       0.869413
        69      -2.424439       0.855160
        70      -2.462717       0.899093
        71      -2.491708       1.024384
        72      -2.518502       0.993980
        73      -2.554145       0.879400
        74      -2.590074       0.911457
        75      -2.618763       0.974593
        76      -2.638952       0.958296
        77      -2.656317       0.996966
        78      -2.664619       1.011049
        79      -2.669012       0.984334
        80      -2.663470       1.019653
        81      -2.648450       0.970574
        82      -2.635218       0.924995
        83      -2.615111       0.905821
        84      -2.587936       0.930813
        85      -2.554775       0.839543
        86      -2.523157       0.790740
        87      -2.493059       0.756097
        88      -2.457122       0.703148
        89      -2.417275       0.652137
        90      -2.372018       0.603677
        91      -2.324495       0.569937
        92      -2.270800       0.591315
        93      -2.212330       0.541442
        94      -2.147317       0.543425
        95      -2.078953       0.461280
        96      -2.011065       0.473598
        97      -1.944001       0.459968
        98      -1.878362       0.354207
# Cycle: 2, status: EXP, move: ('sh', -1.1119378362994645, 84, 0)
#     Time      Potential        Kinetic
         0      -2.587936       0.946372
         1      -2.565565       0.755721
         2      -2.549712       0.491757
         3      -2.538409       0.501599
         4      -2.528798       0.429946
         5      -2.526227       0.424874
         6      -2.519399       0.421313
         7      -2.511496       0.404224
         8      -2.509130       0.399484
         9      -2.515700       0.412093
        10      -2.519616       0.381273
        11      -2.521424       0.384133
        12      -2.538395       0.513404
        13      -2.558204       0.445613
        14      -2.573911       0.445451
        15      -2.584985       0.368603
        16      -2.595338       0.389861
        17      -2.606078       0.356042
        18      -2.609509       0.290241
        19      -2.606945       0.277741
        20      -2.601395       0.255014
        21      -2.605672       0.258230
        22      -2.609117       0.295856
        23      -2.615343       0.254492
        24      -2.619868       0.241400
        25      -2.623505       0.190934
        26      -2.627104       0.279763
        27      -2.635438       0.190045
        28      -2.640624       0.200382
        29      -2.647063       0.201347
        30      -2.656732       0.285703
        31      -2.668179       0.183857
        32      -2.670140       0.124482
        33      -2.669207       0.079144
        34      -2.665182       0.065801
        35      -2.656219       0.065692
        36      -2.648829       0.050909
        37      -2.644136       0.046847
        38      -2.643217       0.055592
        39      -2.644225       0.059632
        40      -2.650066       0.047931
        41      -2.657916       0.062940
        42      -2.662379       0.054084
        43      -2.671407       0.074158
        44      -2.683155       0.093843
        45      -2.700654       0.138967
        46      -2.718617       0.139787
        47      -2.740975       0.255340
        48      -2.765783       0.210221
        49      -2.793549       0.374718
        50      -2.819973       0.453370
        51      -2.845920       0.525401
        52      -2.869189       0.520059
        53      -2.888378       0.493201
        54      -2.905310       0.447671
        55      -2.919162       0.499525
        56      -2.929925       0.308457
        57      -2.938486       0.360203
        58      -2.945013       0.405123
        59      -2.949647       0.286528
        60      -2.953423       0.267763
        61      -2.955819       0.256356
        62      -2.957045       0.248762
        63      -2.957678       0.207438
        64      -2.957836       0.201190
        65      -2.958551       0.197060
        66      -2.959086       0.192806
        67      -2.957552       0.187436
        68      -2.954025       0.182558
        69      -2.949521       0.176911
        70      -2.947078       0.212584
        71      -2.945656       0.289478
        72      -2.943698       0.265106
        73      -2.939354       0.212100
        74      -2.934452       0.292084
        75      -2.929311       0.332689
        76      -2.923248       0.347224
        77      -2.916087       0.269979
        78      -2.908081       0.405158
        79      -2.899273       0.298052
        80      -2.889565       0.376170
        81      -2.877687       0.621427
        82      -2.862982       0.616845
        83      -2.847324       0.499125
        84      -2.831777       0.347067
        85      -2.816389       0.319822
        86      -2.800415       0.342995
        87      -2.782884       0.424316
        88      -2.763344       0.434523
        89      -2.743370       0.329820
        90      -2.723420       0.272874
        91      -2.705648       0.275608
        92      -2.684973       0.225099
        93      -2.661483       0.345406
        94      -2.629920       0.692535
        95      -2.591073       0.794866
        96      -2.542138       1.074650
        97      -2.489859       0.696470
        98      -2.441360       0.572410
# Cycle: 3, status: EXP, move: ('sh', -1.0318147520107195, 52, 0)
#     Time      Potential        Kinetic
         0      -2.869189       2.917955
         1      -2.894358       3.202071
         2      -2.894951       3.342636
         3      -2.875316       2.932422
         4      -2.846516       2.489209
         5      -2.807054       2.645309
         6      -2.754705       2.388541
         7      -2.688758       2.573703
         8      -2.615761       2.319656
         9      -2.537926       2.323188
        10      -2.445986       2.380339
        11      -2.349430       2.336668
        12      -2.258285       1.881904
        13      -2.176881       1.721624
        14      -2.106763       1.407626
        15      -2.055153       1.280644
        16      -2.001708       1.308915
        17      -1.947649       1.244396
        18      -1.902714       1.216311
        19      -1.852317       1.178279
        20      -1.805762       1.207111
        21      -1.763184       1.081397
        22      -1.726064       1.078975
        23      -1.697827       0.994562
        24      -1.679989       0.938563
        25      -1.667750       0.943125
        26      -1.656688       0.920321
        27      -1.653357       0.889118
        28      -1.655906       0.880647
        29      -1.658584       0.885535
        30      -1.661748       0.893693
        31      -1.669476       0.877201
        32      -1.680909       0.880290
        33      -1.695398       0.882817
        34      -1.709116       0.883630
        35      -1.723871       0.909997
        36      -1.739671       0.925992
        37      -1.757267       0.907543
        38      -1.776187       0.962188
        39      -1.798628       1.115490
        40      -1.826260       1.383525
        41      -1.859300       1.494781
        42      -1.895108       1.227056
        43      -1.930079       1.171127
        44      -1.965571       1.084949
        45      -1.999509       1.034294
        46      -2.033613       1.116301
        47      -2.068392       1.189265
        48      -2.104797       1.093769
        49      -2.139024       1.110412
        50      -2.176199       1.212714
        51      -2.213403       1.119878
        52      -2.238000       1.070281
        53      -2.260243       1.091641
        54      -2.288276       1.144035
        55      -2.317299       1.142445
        56      -2.342225       1.116648
        57      -2.367425       1.157985
        58      -2.401549       1.376784
        59      -2.448538       1.450898
        60      -2.490200       1.298506
        61      -2.530342       1.611048
        62      -2.580387       1.723708
        63      -2.627131       1.584769
        64      -2.666173       1.434489
        65      -2.697362       1.546210
        66      -2.732406       1.914445
        67      -2.765332       1.976341
        68      -2.789943       1.668113
        69      -2.807266       1.998135
        70      -2.818461       2.420057
        71      -2.815262       2.104069
        72      -2.797683       2.431525
        73      -2.763606       2.459074
        74      -2.710271       2.443485
        75      -2.636986       2.464892
        76      -2.541145       2.182289
        77      -2.426858       2.199683
        78      -2.296340       2.139396
        79      -2.148327       1.770735
        80      -1.988549       1.542795
        81      -1.827049       1.204298
        82      -1.659602       1.015363
        83      -1.480866       1.279929
        84      -1.284175       1.457266
        85      -1.100280       0.854994
        86      -0.941858       0.825083
        87      -0.780014       0.762868
        88      -0.643346       0.511562
        89      -0.543788       0.370269
        90      -0.488244       0.365556
        91      -0.450946       0.284636
        92      -0.465471       0.267841
        93      -0.504185       0.377415
        94      -0.556474       0.409057
        95      -0.625943       0.569717
        96      -0.688587       0.666672
        97      -0.770456       0.775273
        98      -0.862315       0.858954
# Cycle: 4, status: EXP, move: ('sh', -0.9186412957821298, 89, 0)
#     Time      Potential        Kinetic
         0      -0.543788       0.516778
         1      -0.492269       0.731738
         2      -0.445329       0.576382
         3      -0.437848       0.647345
         4      -0.454901       0.606496
         5      -0.504645       0.690163
         6      -0.566014       0.811242
         7      -0.624936       0.953722
         8      -0.689028       1.062999
         9      -0.750578       1.232595
        10      -0.810801       1.348073
        11      -0.865526       1.390349
        12      -0.902771       1.579984
        13      -0.928078       1.521475
        14      -0.971375       1.546207
        15      -1.024375       1.580450
        16      -1.100779       1.634799
        17      -1.175379       1.709328
        18      -1.243807       1.726640
        19      -1.298882       1.670406
        20      -1.337442       1.808934
        21      -1.391311       1.834008
        22      -1.434210       1.754980
        23      -1.476120       1.809348
        24      -1.512144       1.791222
        25      -1.541587       1.674102
        26      -1.579799       1.998864
        27      -1.634782       2.191833
        28      -1.709535       2.346555
        29      -1.771094       2.035653
        30      -1.834129       2.322376
        31      -1.895756       2.443075
        32      -1.963513       2.184553
        33      -2.019799       2.386556
        34      -2.076507       2.557425
        35      -2.129430       2.333112
        36      -2.171204       2.087710
        37      -2.202914       1.661918
        38      -2.228313       1.794641
        39      -2.249459       1.589191
        40      -2.265320       1.734881
        41      -2.276287       1.305142
        42      -2.283190       0.964810
        43      -2.287768       0.554918
        44      -2.291704       0.615894
        45      -2.294982       0.561709
        46      -2.295327       0.806792
        47      -2.292889       0.803907
        48      -2.285721       1.007134
        49      -2.274455       0.613640
        50      -2.261182       0.770651
        51      -2.245882       0.969201
        52      -2.222233       1.095424
        53      -2.196830       0.643558
        54      -2.176946       0.627931
        55      -2.154762       0.498824
        56      -2.133529       0.568985
        57      -2.112942       0.324163
        58      -2.100543       0.294216
        59      -2.085741       0.393157
        60      -2.061150       0.455064
        61      -2.030566       0.578459
        62      -1.999716       0.502444
        63      -1.971002       0.380493
        64      -1.940206       0.471879
        65      -1.911161       0.336567
        66      -1.882348       0.365013
        67      -1.856212       0.281911
        68      -1.833330       0.254110
        69      -1.819485       0.156076
        70      -1.817486       0.146908
        71      -1.811484       0.154156
        72      -1.805624       0.138990
        73      -1.807557       0.159654
        74      -1.805872       0.135960
        75      -1.806564       0.141209
        76      -1.812882       0.169500
        77      -1.829410       0.298677
        78      -1.846840       0.198570
        79      -1.865874       0.241417
        80      -1.886002       0.227907
        81      -1.912296       0.390431
        82      -1.939378       0.436751
        83      -1.969958       0.314023
        84      -1.995235       0.292955
        85      -2.016550       0.289589
        86      -2.039990       0.397194
        87      -2.071027       0.456379
        88      -2.100295       0.396192
        89      -2.126588       0.410823
        90      -2.156173       0.445712
        91      -2.180524       0.285280
        92      -2.205115       0.353450
        93      -2.234312       0.469365
        94      -2.266213       0.692102
        95      -2.303792       0.759795
        96      -2.346550       1.091331
        97      -2.386815       0.794917
        98      -2.421919       0.849875
# Cycle: 5, status: EXP, move: ('sh', -1.1173494477363284, 47, 0)
#     Time      Potential        Kinetic
         0      -2.292889       0.756657
         1      -2.305401       0.730938
         2      -2.315240       0.700376
         3      -2.323828       0.766445
         4      -2.331103       0.818886
         5      -2.335866       0.824045
         6      -2.336459       0.943783
         7      -2.332632       0.990110
         8      -2.323284       1.081989
         9      -2.307735       0.839111
        10      -2.286813       0.836352
        11      -2.261029       0.695837
        12      -2.231875       0.623694
        13      -2.197137       0.725807
        14      -2.156311       0.692666
        15      -2.114187       0.584923
        16      -2.070867       0.437523
        17      -2.029260       0.378614
        18      -1.989174       0.375300
        19      -1.950129       0.332341
        20      -1.911976       0.360003
        21      -1.873298       0.351695
        22      -1.840590       0.229850
        23      -1.825617       0.184529
        24      -1.820282       0.177507
        25      -1.826514       0.181362
        26      -1.841002       0.206873
        27      -1.863372       0.204296
        28      -1.892859       0.245723
        29      -1.931526       0.281441
        30      -1.978190       0.451950
        31      -2.035131       0.527258
        32      -2.095300       0.621062
        33      -2.154616       0.605811
        34      -2.210971       0.473687
        35      -2.266162       0.504562
        36      -2.321312       0.560895
        37      -2.376881       0.674603
        38      -2.433335       0.751970
        39      -2.490914       0.739159
        40      -2.548523       0.784755
        41      -2.605134       0.845360
        42      -2.660087       0.887224
        43      -2.712953       0.970920
        44      -2.762522       0.973143
        45      -2.808379       1.044819
        46      -2.849875       1.068988
        47      -2.886649       1.138087
        48      -2.918075       1.234030
        49      -2.943280       1.182322
        50      -2.961654       1.191156
        51      -2.972716       1.298581
        52      -2.975733       1.227750
        53      -2.970423       1.224541
        54      -2.955914       1.229875
        55      -2.933119       1.121138
        56      -2.900582       1.097492
        57      -2.859447       1.210151
        58      -2.811526       0.941306
        59      -2.755561       1.022071
        60      -2.690963       0.903330
        61      -2.619138       0.807884
        62      -2.544507       0.823273
        63      -2.465988       0.610532
        64      -2.389368       0.633827
        65      -2.311421       0.556267
        66      -2.224885       0.518812
        67      -2.142225       0.446522
        68      -2.065363       0.345514
        69      -1.988843       0.306588
        70      -1.931394       0.175341
