# Cycle: 0, status: EXP, move: ('ld', 0, 0, 0)
#     Time      Potential        Kinetic
         0            nan            nan
         1            nan            nan
         2            nan            nan
         3            nan            nan
         4            nan            nan
         5            nan            nan
# Cycle: 1, status: EXP, move: ('sh', -0.2, 3, 0)
#     Time      Potential        Kinetic
         0      -0.078400       0.196021
         1      -0.086856       0.136324
         2      -0.093218       0.086120
         3      -0.100100       0.096763
         4      -0.106522       0.089246
         5      -0.115055       0.148350
         6      -0.125485       0.176281
         7      -0.139236       0.374555
         8      -0.156967       0.537416
         9      -0.178051       0.495296
        10      -0.198853       0.570028
        11      -0.223615       0.624961
        12      -0.250198       0.706098
        13      -0.276445       0.411396
        14      -0.298502       0.299768
        15      -0.320149       0.267223
        16      -0.341864       0.267057
        17      -0.363351       0.260043
        18      -0.384257       0.283896
        19      -0.405259       0.235083
        20      -0.429291       0.461918
        21      -0.456333       0.406903
        22      -0.484650       0.481135
        23      -0.514041       0.433528
        24      -0.545519       0.499415
        25      -0.581424       0.688649
        26      -0.617901       0.715387
        27      -0.655883       0.759349
        28      -0.695576       0.676109
        29      -0.736673       0.845250
        30      -0.778906       0.926393
        31      -0.819503       1.047872
        32      -0.859724       0.821195
        33      -0.900575       0.985023
        34      -0.942488       1.362850
        35      -0.986745       1.337370
        36      -1.027992       1.443474
        37      -1.068895       1.624080
        38      -1.105881       1.345446
        39      -1.137378       1.628759
        40      -1.163357       1.422393
        41      -1.181770       1.092529
        42      -1.193701       1.200595
        43      -1.200521       1.308992
        44      -1.200319       1.250701
        45      -1.194058       1.251272
        46      -1.181528       1.147069
        47      -1.163224       0.992221
        48      -1.139633       1.293219
        49      -1.110319       1.338841
        50      -1.075196       1.440613
        51      -1.035442       1.573475
        52      -0.988998       1.581592
        53      -0.940434       1.371084
        54      -0.893730       1.342840
        55      -0.849654       1.229520
        56      -0.810896       1.038856
        57      -0.777889       1.229637
        58      -0.748853       1.256955
        59      -0.722007       1.418861
        60      -0.693959       2.164662
        61      -0.667456       2.519186
        62      -0.644067       2.585325
        63      -0.636807       2.295566
        64      -0.645384       2.080311
        65      -0.669750       2.258144
        66      -0.710805       2.383059
        67      -0.767603       2.039459
        68      -0.842300       2.274973
        69      -0.927608       2.103693
        70      -1.036002       1.869905
        71      -1.142786       2.266657
        72      -1.240333       2.372464
        73      -1.338368       2.362572
        74      -1.436382       2.314136
        75      -1.538555       2.259309
        76      -1.623597       2.543659
        77      -1.683290       2.594474
        78      -1.726040       2.637596
        79      -1.756974       2.601506
        80      -1.783011       2.501901
        81      -1.798533       2.551992
        82      -1.787926       2.624137
        83      -1.758448       2.712089
        84      -1.718758       2.578637
        85      -1.683194       2.397965
        86      -1.657088       2.361705
        87      -1.624131       2.388481
        88      -1.587557       2.378850
        89      -1.551656       2.323636
        90      -1.528858       2.215312
        91      -1.511542       2.209339
        92      -1.511533       2.159304
        93      -1.519653       2.145004
        94      -1.533351       2.136092
        95      -1.561221       2.121866
        96      -1.572577       2.096616
        97      -1.581604       2.080959
        98      -1.586577       2.081653
# Cycle: 2, status: EXP, move: ('sh', -1.41980169995804, 59, 0)
#     Time      Potential        Kinetic
         0      -0.722007       0.392308
         1      -0.733656       0.336346
         2      -0.754536       0.350837
         3      -0.794999       0.444359
         4      -0.846088       0.533783
         5      -0.905601       0.795876
         6      -0.971967       0.893148
         7      -1.051942       0.843054
         8      -1.144847       1.098871
         9      -1.243744       1.048992
        10      -1.354206       1.101342
        11      -1.473008       1.117751
        12      -1.596114       1.252178
        13      -1.718147       1.349352
        14      -1.838165       1.414795
        15      -1.954904       1.494544
        16      -2.063957       1.584310
        17      -2.164560       1.661185
        18      -2.255083       1.733934
        19      -2.333431       1.816374
        20      -2.400472       1.833939
        21      -2.457947       1.884327
        22      -2.504627       1.896057
        23      -2.539729       1.911935
        24      -2.565852       1.911389
        25      -2.585392       1.943684
        26      -2.603307       1.960628
        27      -2.615761       2.072239
        28      -2.624153       1.972549
        29      -2.622511       1.892131
        30      -2.613873       1.797496
        31      -2.599834       1.766483
        32      -2.579044       1.727121
        33      -2.551099       1.695790
        34      -2.520639       1.750304
        35      -2.487272       1.684838
        36      -2.455458       1.557681
        37      -2.423510       1.520955
        38      -2.392324       1.433260
        39      -2.362038       1.463944
        40      -2.331769       1.376081
        41      -2.303100       1.302333
        42      -2.275575       1.263924
        43      -2.246964       1.229392
        44      -2.217759       1.182460
        45      -2.187937       1.125375
        46      -2.156829       1.080429
        47      -2.123316       1.048761
        48      -2.088320       0.994669
        49      -2.053307       0.941270
        50      -2.015648       0.892077
        51      -1.975142       0.842088
        52      -1.930398       0.820605
        53      -1.882086       0.750927
        54      -1.831041       0.690251
        55      -1.778289       0.627509
        56      -1.725479       0.577288
        57      -1.669435       0.543751
        58      -1.605562       0.459662
        59      -1.548205       0.395990
        60      -1.499147       0.338558
        61      -1.444886       0.285178
        62      -1.400763       0.266274
        63      -1.373541       0.271562
        64      -1.361618       0.325156
        65      -1.358314       0.320127
        66      -1.366201       0.546342
        67      -1.394898       0.674831
        68      -1.429916       0.773050
        69      -1.473981       0.973833
        70      -1.518821       0.916026
        71      -1.568174       0.949256
        72      -1.612579       1.055196
        73      -1.659165       1.107593
        74      -1.708521       1.134930
        75      -1.750854       1.164467
        76      -1.788514       1.250914
        77      -1.822292       1.345547
        78      -1.851165       1.403039
        79      -1.874688       0.969232
        80      -1.891773       0.896594
        81      -1.905885       0.704584
        82      -1.916563       0.685337
        83      -1.924968       0.808938
        84      -1.930627       1.060669
        85      -1.933040       1.126651
        86      -1.932800       1.020099
        87      -1.930678       0.804194
        88      -1.926819       1.090220
        89      -1.919111       1.323724
        90      -1.910460       1.287459
        91      -1.900243       1.419579
        92      -1.887487       1.686272
# Cycle: 3, status: EXP, move: ('sh', -0.8749146671110674, 28, 0)
#     Time      Potential        Kinetic
         0      -2.624153       0.478602
         1      -2.607427       0.482426
         2      -2.591013       0.458268
         3      -2.576213       0.419971
         4      -2.565003       0.396946
         5      -2.553958       0.381178
         6      -2.545267       0.378598
         7      -2.536386       0.362694
         8      -2.528137       0.414341
         9      -2.521174       0.437911
        10      -2.515056       0.539435
        11      -2.506613       0.615214
        12      -2.495844       0.500937
        13      -2.482620       0.659813
        14      -2.466166       0.610830
        15      -2.445851       0.674735
        16      -2.421466       0.763594
        17      -2.392048       0.806336
        18      -2.359003       0.596751
        19      -2.326425       0.460883
        20      -2.294566       0.450446
        21      -2.262466       0.288184
        22      -2.237206       0.195721
        23      -2.218900       0.144864
        24      -2.210281       0.099064
        25      -2.208573       0.091280
        26      -2.210479       0.093517
        27      -2.220321       0.101902
        28      -2.234579       0.105193
        29      -2.249179       0.117751
        30      -2.262656       0.140775
        31      -2.276098       0.242277
        32      -2.291755       0.244319
        33      -2.311226       0.269851
        34      -2.333914       0.300968
        35      -2.359694       0.334050
        36      -2.386539       0.345544
        37      -2.419352       0.397284
        38      -2.453571       0.436346
        39      -2.495517       0.428839
        40      -2.540800       0.471017
        41      -2.588512       0.509764
        42      -2.640905       0.571455
        43      -2.692411       0.629644
        44      -2.743073       0.681372
        45      -2.789528       0.710395
        46      -2.830461       0.692808
        47      -2.865235       0.718583
        48      -2.896005       0.738834
        49      -2.921391       0.760757
        50      -2.941023       0.765318
        51      -2.957498       0.773870
        52      -2.969210       0.818129
        53      -2.976954       0.825806
        54      -2.977519       0.786961
        55      -2.971937       0.743382
        56      -2.961244       0.756898
        57      -2.946891       0.856522
        58      -2.928740       0.868851
        59      -2.906426       0.968776
        60      -2.879948       0.745076
        61      -2.849782       0.639472
        62      -2.816749       0.530629
        63      -2.781377       0.481241
        64      -2.743069       0.494556
        65      -2.701815       0.476338
        66      -2.656782       0.559040
        67      -2.610673       0.398265
        68      -2.562980       0.370929
        69      -2.516520       0.353243
        70      -2.467731       0.313761
        71      -2.417299       0.405829
        72      -2.365811       0.366095
        73      -2.319785       0.237529
        74      -2.280508       0.138244
        75      -2.246295       0.212947
        76      -2.212925       0.280968
        77      -2.185098       0.175642
        78      -2.168505       0.103032
        79      -2.161341       0.110303
        80      -2.160768       0.143843
        81      -2.175039       0.100413
        82      -2.196127       0.128322
        83      -2.218143       0.191125
        84      -2.248334       0.254895
        85      -2.275776       0.274215
        86      -2.307870       0.335558
        87      -2.347969       0.326123
        88      -2.403539       0.395784
        89      -2.457050       0.432625
        90      -2.513607       0.478706
        91      -2.573435       0.658768
        92      -2.638741       0.817966
        93      -2.698875       0.707236
        94      -2.744210       0.626285
        95      -2.778338       0.615005
        96      -2.807293       0.650088
        97      -2.829911       0.633076
        98      -2.842767       0.658677
# Cycle: 4, status: EXP, move: ('sh', -1.093423119058139, 14, 0)
#     Time      Potential        Kinetic
         0      -2.466166       0.031949
         1      -2.471322       0.084830
         2      -2.477591       0.062593
         3      -2.484613       0.053814
         4      -2.492613       0.049303
         5      -2.501669       0.061502
         6      -2.511744       0.069544
         7      -2.523035       0.077600
         8      -2.535418       0.088444
         9      -2.549109       0.120696
        10      -2.564171       0.172912
        11      -2.580645       0.144557
        12      -2.597649       0.165271
        13      -2.615578       0.168577
        14      -2.634249       0.190101
        15      -2.653191       0.191303
        16      -2.672368       0.207818
        17      -2.692602       0.243229
        18      -2.714242       0.313161
        19      -2.736611       0.303551
        20      -2.758782       0.315604
        21      -2.781285       0.354963
        22      -2.803660       0.348209
        23      -2.826166       0.458345
        24      -2.849145       0.485635
        25      -2.871563       0.525245
        26      -2.892570       0.453722
        27      -2.911623       0.462384
        28      -2.929141       0.413791
        29      -2.944632       0.449663
        30      -2.958822       0.499921
        31      -2.970639       0.502412
        32      -2.979899       0.548512
        33      -2.985991       0.550851
        34      -2.988846       0.546874
        35      -2.988839       0.494875
        36      -2.985565       0.447596
        37      -2.979533       0.440024
        38      -2.970272       0.464907
        39      -2.957088       0.429666
        40      -2.941191       0.412737
        41      -2.921647       0.421896
        42      -2.900258       0.391450
        43      -2.874984       0.369525
        44      -2.849410       0.281524
        45      -2.826286       0.248035
        46      -2.801603       0.214906
        47      -2.780209       0.190760
        48      -2.757807       0.165309
        49      -2.735438       0.144944
        50      -2.715362       0.146144
        51      -2.702071       0.212651
        52      -2.694034       0.197267
        53      -2.686021       0.180771
        54      -2.681469       0.293060
        55      -2.680018       0.202364
        56      -2.679863       0.232097
        57      -2.681586       0.394209
        58      -2.685475       0.423423
        59      -2.689189       0.471254
        60      -2.692609       0.652640
        61      -2.695028       0.428199
        62      -2.697061       0.278414
        63      -2.700641       0.090706
        64      -2.706437       0.069045
        65      -2.713102       0.065293
        66      -2.720545       0.163573
        67      -2.726807       0.216716
        68      -2.731411       0.336298
        69      -2.731427       0.354720
        70      -2.731104       0.415620
        71      -2.727767       0.408384
        72      -2.720296       0.494137
        73      -2.710818       0.502915
        74      -2.699719       0.446504
        75      -2.685564       0.545685
        76      -2.670103       0.369752
        77      -2.659887       0.290624
        78      -2.651030       0.238943
        79      -2.646540       0.176826
        80      -2.646199       0.183906
        81      -2.649901       0.171585
        82      -2.651809       0.175725
        83      -2.649895       0.191958
        84      -2.646677       0.192715
        85      -2.638728       0.236712
        86      -2.632501       0.178400
        87      -2.638305       0.234386
        88      -2.652452       0.274358
        89      -2.670125       0.322631
        90      -2.692723       0.432126
        91      -2.715472       0.338315
        92      -2.733218       0.370374
        93      -2.750834       0.300055
        94      -2.764698       0.316771
        95      -2.777416       0.258859
        96      -2.796014       0.519612
        97      -2.820326       0.740068
        98      -2.843087       0.674422
# Cycle: 5, status: EXP, move: ('sh', -1.0721098817002008, 3, 0)
#     Time      Potential        Kinetic
         0      -2.484613       0.645202
         1      -2.462617       0.632312
         2      -2.436862       0.609327
         3      -2.405847       0.834840
         4      -2.368313       0.753693
         5      -2.325454       0.890141
         6      -2.276515       0.747316
         7      -2.221394       0.978942
         8      -2.157636       1.002655
         9      -2.079811       1.377542
        10      -1.992696       1.249679
        11      -1.907004       0.934669
        12      -1.831463       0.861677
        13      -1.756204       0.756768
        14      -1.696613       0.489406
        15      -1.650873       0.487577
        16      -1.618374       0.440159
        17      -1.597324       0.421126
        18      -1.593268       0.404781
        19      -1.597882       0.460974
        20      -1.622170       0.421531
        21      -1.665701       0.489618
        22      -1.717708       0.560550
        23      -1.787537       0.591296
        24      -1.869405       0.667858
        25      -1.963752       0.741929
        26      -2.070615       0.846257
        27      -2.178925       0.933820
        28      -2.274826       0.998117
        29      -2.369657       1.097656
        30      -2.465240       1.195086
        31      -2.552293       1.226171
        32      -2.628621       1.321113
        33      -2.703620       1.479609
        34      -2.767064       1.445606
        35      -2.811442       1.441122
        36      -2.843942       1.510479
        37      -2.866892       1.645051
        38      -2.878984       1.530482
        39      -2.880847       1.814699
        40      -2.876206       1.909196
        41      -2.861755       1.967496
        42      -2.837337       1.772141
        43      -2.803812       1.616158
        44      -2.763466       1.529619
        45      -2.717220       1.369459
        46      -2.667472       1.212520
        47      -2.616208       1.208287
        48      -2.564481       1.259395
        49      -2.513204       1.109216
        50      -2.463017       1.063099
        51      -2.414657       1.095122
        52      -2.368420       1.021888
        53      -2.324753       0.813714
        54      -2.284149       0.805555
        55      -2.246843       0.772877
        56      -2.212311       1.079818
        57      -2.180330       0.868666
        58      -2.152037       0.632924
        59      -2.125866       0.880061
        60      -2.102100       0.675546
        61      -2.081830       0.772186
        62      -2.063333       0.781755
        63      -2.047370       0.500548
        64      -2.032968       0.599484
        65      -2.020559       0.587233
        66      -2.008364       0.718861
        67      -1.996536       0.709027
        68      -1.983574       0.901940
        69      -1.969373       0.720271
        70      -1.957096       0.533351
        71      -1.944363       0.841936
        72      -1.929609       0.734688
        73      -1.915966       0.602868
        74      -1.908259       0.401409
        75      -1.901476       0.452329
        76      -1.894695       0.363693
