# Cycle: 0, status: ACC, move: ('ld', 0, 0, 0)
#     Time      Potential        Kinetic
         0            nan            nan
         1            nan            nan
         2            nan            nan
         3            nan            nan
         4            nan            nan
         5            nan            nan
         6            nan            nan
         7            nan            nan
         8            nan            nan
         9            nan            nan
        10            nan            nan
        11            nan            nan
        12            nan            nan
        13            nan            nan
        14            nan            nan
        15            nan            nan
        16            nan            nan
        17            nan            nan
        18            nan            nan
        19            nan            nan
        20            nan            nan
        21            nan            nan
        22            nan            nan
        23            nan            nan
        24            nan            nan
# Cycle: 1, status: ACC, move: ('sh', 2.200829029083252, 8, 8)
#     Time      Potential        Kinetic
         0      -0.174907       5.476458
         1      -0.196604       5.498158
         2      -0.216720       5.518328
         3      -0.248991       5.550616
         4      -0.299013       5.600568
         5      -0.351964       5.653433
         6      -0.388198       5.689636
         7      -0.400482       5.701957
         8      -0.396059       5.697588
         9      -0.385384       5.686926
        10      -0.370296       5.671832
        11      -0.346955       5.648510
        12      -0.316945       5.618549
        13      -0.288624       5.590257
        14      -0.266075       5.567699
        15      -0.245941       5.547558
        16      -0.225807       5.527420
        17      -0.206348       5.507968
        18      -0.189930       5.491530
        19      -0.173569       5.475127
        20      -0.148120       5.449646
        21      -0.105887       5.407429
        22      -0.049054       5.350656
        23       0.010454       5.291220
        24       0.057891       5.243837
        25       0.083303       5.218425
        26       0.088660       5.213031
        27       0.083679       5.217985
        28       0.074868       5.226799
        29       0.060669       5.241007
        30       0.037232       5.264434
        31       0.004659       5.296986
        32      -0.034249       5.335873
        33      -0.076995       5.378591
        34      -0.120472       5.422032
        35      -0.159746       5.461256
        36      -0.187354       5.488810
        37      -0.194477       5.495902
        38      -0.177958       5.479423
        39      -0.151266       5.452807
        40      -0.136507       5.438070
        41      -0.143577       5.445070
        42      -0.161014       5.462409
        43      -0.171174       5.472538
        44      -0.172403       5.473811
        45      -0.181832       5.483291
        46      -0.217673       5.519100
        47      -0.278737       5.580050
        48      -0.344334       5.645539
        49      -0.394716       5.695865
        50      -0.422220       5.723360
        51      -0.428647       5.729804
        52      -0.420922       5.722109
        53      -0.407169       5.708360
        54      -0.389066       5.690246
        55      -0.364024       5.665207
        56      -0.331719       5.632918
        57      -0.294367       5.595591
        58      -0.254894       5.556142
        59      -0.215161       5.516448
        60      -0.180349       5.481701
        61      -0.162080       5.463477
        62      -0.168675       5.470049
        63      -0.194519       5.495839
        64      -0.228667       5.529970
        65      -0.269491       5.570796
        66      -0.319172       5.620423
        67      -0.366346       5.667502
        68      -0.388902       5.690007
        69      -0.373589       5.674739
        70      -0.329083       5.630333
        71      -0.275128       5.576430
        72      -0.220145       5.521460
        73      -0.164390       5.465749
        74      -0.116508       5.417927
        75      -0.089991       5.391421
        76      -0.087297       5.388680
        77      -0.097505       5.398834
        78      -0.108821       5.410139
        79      -0.121251       5.422598
        80      -0.146066       5.447431
        81      -0.192640       5.493965
        82      -0.256765       5.557992
        83      -0.320654       5.621779
        84      -0.364623       5.665689
        85      -0.378496       5.679570
        86      -0.366736       5.667866
        87      -0.343268       5.644444
        88      -0.318449       5.619635
        89      -0.294354       5.595545
        90      -0.272056       5.573257
        91      -0.254439       5.555622
        92      -0.238813       5.539965
        93      -0.220546       5.521705
        94      -0.203857       5.505044
        95      -0.197997       5.499184
        96      -0.205653       5.506813
        97      -0.222904       5.524045
        98      -0.248130       5.549262
        99      -0.282588       5.583689
       100      -0.322773       5.623820
       101      -0.359544       5.660532
       102      -0.382470       5.683412
       103      -0.383643       5.684578
       104      -0.363298       5.664275
       105      -0.331512       5.632553
       106      -0.302188       5.603274
       107      -0.284319       5.585401
       108      -0.276018       5.577061
       109      -0.269351       5.570365
       110      -0.259977       5.560997
       111      -0.251528       5.552564
       112      -0.248718       5.549750
       113      -0.250809       5.551830
       114      -0.255579       5.556603
       115      -0.264209       5.565229
       116      -0.277009       5.578003
       117      -0.290082       5.591048
       118      -0.298911       5.599845
       119      -0.298921       5.599831
       120      -0.287720       5.588632
       121      -0.269773       5.570718
       122      -0.256346       5.557304
       123      -0.254064       5.554980
       124      -0.256356       5.557217
       125      -0.253218       5.554057
       126      -0.241964       5.542797
       127      -0.223570       5.524406
       128      -0.199975       5.500832
       129      -0.175944       5.476833
       130      -0.157678       5.458585
       131      -0.147221       5.448115
       132      -0.139894       5.440772
       133      -0.132212       5.433114
       134      -0.131827       5.432779
       135      -0.154269       5.455222
       136      -0.204452       5.505310
       137      -0.265779       5.566532
       138      -0.319286       5.619986
       139      -0.358305       5.658976
       140      -0.381405       5.682057
       141      -0.388558       5.689214
       142      -0.383421       5.684097
       143      -0.371872       5.672573
       144      -0.359475       5.660183
       145      -0.346479       5.647147
       146      -0.322517       5.623155
       147      -0.280065       5.580750
       148      -0.230730       5.531506
       149      -0.196943       5.497744
       150      -0.186517       5.487235
       151      -0.181964       5.482582
       152      -0.161673       5.462277
       153      -0.123834       5.424503
       154      -0.083977       5.384706
       155      -0.056109       5.356856
       156      -0.044230       5.344975
       157      -0.048340       5.349089
       158      -0.071309       5.372047
       159      -0.114310       5.414987
       160      -0.168647       5.469233
       161      -0.218882       5.519404
       162      -0.255914       5.556419
       163      -0.281297       5.581794
       164      -0.297877       5.598359
       165      -0.306366       5.606865
       166      -0.313417       5.613939
       167      -0.326094       5.626600
       168      -0.341135       5.641583
       169      -0.344470       5.644865
       170      -0.322126       5.622524
       171      -0.272175       5.572646
       172      -0.208852       5.509439
       173      -0.156760       5.457442
       174      -0.135106       5.435779
       175      -0.139600       5.440176
       176      -0.146110       5.446611
       177      -0.136758       5.437272
       178      -0.115991       5.416569
       179      -0.101790       5.402416
       180      -0.108875       5.409490
       181      -0.138471       5.439038
       182      -0.183843       5.484363
       183      -0.239747       5.540213
       184      -0.300141       5.600521
       185      -0.351528       5.651814
       186      -0.378112       5.678357
       187      -0.373937       5.674198
       188      -0.344222       5.644529
       189      -0.298971       5.599338
       190      -0.251250       5.551665
       191      -0.211764       5.512180
       192      -0.181495       5.481879
       193      -0.154146       5.454511
       194      -0.125757       5.426136
       195      -0.098882       5.399285
       196      -0.078622       5.379056
       197      -0.072653       5.373118
       198      -0.090329       5.390794
       199      -0.135688       5.436097
       200      -0.200643       5.500950
       201      -0.266724       5.566942
       202      -0.318571       5.618775
       203      -0.357193       5.657418
       204      -0.389869       5.690067
       205      -0.411752       5.711902
       206      -0.411380       5.711536
       207      -0.388099       5.688312
       208      -0.353194       5.653469
       209      -0.318850       5.619146
       210      -0.288354       5.588639
       211      -0.258022       5.558302
       212      -0.226273       5.526555
       213      -0.193890       5.494157
       214      -0.158569       5.458810
       215      -0.117011       5.417262
       216      -0.075763       5.376064
       217      -0.052048       5.352379
       218      -0.058693       5.358981
       219      -0.091056       5.391249
       220      -0.132125       5.432228
       221      -0.164931       5.464977
       222      -0.179361       5.479402
       223      -0.176218       5.476303
       224      -0.166553       5.466696
       225      -0.163730       5.463884
       226      -0.169882       5.469986
       227      -0.172412       5.472456
# Cycle: 2, status: BWI, move: ('sh', 2.3245859146118164, 89, 0)
#     Time      Potential        Kinetic
         0      -0.292760       5.490695
         1      -0.333761       5.531681
         2      -0.374496       5.572384
         3      -0.411042       5.608893
         4      -0.437911       5.635737
         5      -0.452600       5.650421
         6      -0.457784       5.655611
         7      -0.459108       5.656935
         8      -0.460841       5.658647
         9      -0.461648       5.659423
        10      -0.457151       5.654904
        11      -0.444122       5.641865
        12      -0.421661       5.619400
        13      -0.389620       5.587358
        14      -0.347883       5.545630
        15      -0.298313       5.496085
        16      -0.246884       5.444697
        17      -0.203197       5.401047
        18      -0.176150       5.374015
        19      -0.169251       5.367103
        20      -0.179356       5.377180
        21      -0.199671       5.397468
        22      -0.224475       5.422258
        23      -0.251842       5.449624
        24      -0.283409       5.481192
        25      -0.321976       5.519751
        26      -0.368556       5.566311
        27      -0.420846       5.618566
        28      -0.472898       5.670577
        29      -0.516691       5.714332
        30      -0.544708       5.742328
        31      -0.553077       5.750694
        32      -0.541536       5.739161
        33      -0.512505       5.710147
        34      -0.471048       5.668719
        35      -0.425150       5.622848
        36      -0.382981       5.580696
        37      -0.350486       5.548201
        38      -0.329251       5.526943
        39      -0.315206       5.512863
        40      -0.300740       5.498367
        41      -0.279527       5.477147
        42      -0.250538       5.448174
        43      -0.218595       5.416263
        44      -0.191932       5.389628
        45      -0.177786       5.375492
        46      -0.178750       5.376441
        47      -0.191462       5.389118
        48      -0.207656       5.405268
# Cycle: 3, status: BWI, move: ('tr', 0, 0, 0)
#     Time      Potential        Kinetic
         0      -0.172412       5.472456
         1      -0.169882       5.469986
         2      -0.163730       5.463884
         3      -0.166553       5.466696
         4      -0.176218       5.476303
         5      -0.179361       5.479402
         6      -0.164931       5.464977
         7      -0.132125       5.432228
         8      -0.091056       5.391249
         9      -0.058693       5.358981
        10      -0.052048       5.352379
        11      -0.075763       5.376064
        12      -0.117011       5.417262
        13      -0.158569       5.458810
        14      -0.193890       5.494157
        15      -0.226273       5.526555
        16      -0.258022       5.558302
        17      -0.288354       5.588639
        18      -0.318850       5.619146
        19      -0.353194       5.653469
        20      -0.388099       5.688312
        21      -0.411380       5.711536
        22      -0.411752       5.711902
        23      -0.389869       5.690067
        24      -0.357193       5.657418
        25      -0.318571       5.618775
        26      -0.266724       5.566942
        27      -0.200643       5.500950
        28      -0.135688       5.436097
        29      -0.090329       5.390794
        30      -0.072653       5.373118
        31      -0.078622       5.379056
        32      -0.098882       5.399285
        33      -0.125757       5.426136
        34      -0.154146       5.454511
        35      -0.181495       5.481879
        36      -0.211764       5.512180
        37      -0.251250       5.551665
        38      -0.298971       5.599338
        39      -0.344222       5.644529
        40      -0.373937       5.674198
        41      -0.378112       5.678357
        42      -0.351528       5.651814
        43      -0.300141       5.600521
        44      -0.239747       5.540213
        45      -0.183843       5.484363
        46      -0.138471       5.439038
        47      -0.108875       5.409490
        48      -0.101790       5.402416
        49      -0.115991       5.416569
        50      -0.136758       5.437272
        51      -0.146110       5.446611
        52      -0.139600       5.440176
        53      -0.135106       5.435779
        54      -0.156760       5.457442
        55      -0.208852       5.509439
        56      -0.272175       5.572646
        57      -0.322126       5.622524
        58      -0.344470       5.644865
        59      -0.341135       5.641583
        60      -0.326094       5.626600
        61      -0.313417       5.613939
        62      -0.306366       5.606865
        63      -0.297877       5.598359
        64      -0.281297       5.581794
        65      -0.255914       5.556419
        66      -0.218882       5.519404
        67      -0.168647       5.469233
        68      -0.114310       5.414987
        69      -0.071309       5.372047
        70      -0.048340       5.349089
        71      -0.044230       5.344975
        72      -0.056109       5.356856
        73      -0.083977       5.384706
        74      -0.123834       5.424503
        75      -0.161673       5.462277
        76      -0.181964       5.482582
        77      -0.186517       5.487235
        78      -0.196943       5.497744
        79      -0.230730       5.531506
        80      -0.280065       5.580750
        81      -0.322517       5.623155
        82      -0.346479       5.647147
        83      -0.359475       5.660183
        84      -0.371872       5.672573
        85      -0.383421       5.684097
        86      -0.388558       5.689214
        87      -0.381405       5.682057
        88      -0.358305       5.658976
        89      -0.319286       5.619986
        90      -0.265779       5.566532
        91      -0.204452       5.505310
        92      -0.154269       5.455222
        93      -0.131827       5.432779
        94      -0.132212       5.433114
        95      -0.139894       5.440772
        96      -0.147221       5.448115
        97      -0.157678       5.458585
        98      -0.175944       5.476833
        99      -0.199975       5.500832
       100      -0.223570       5.524406
       101      -0.241964       5.542797
       102      -0.253218       5.554057
       103      -0.256356       5.557217
       104      -0.254064       5.554980
       105      -0.256346       5.557304
       106      -0.269773       5.570718
       107      -0.287720       5.588632
       108      -0.298921       5.599831
       109      -0.298911       5.599845
       110      -0.290082       5.591048
       111      -0.277009       5.578003
       112      -0.264209       5.565229
       113      -0.255579       5.556603
       114      -0.250809       5.551830
       115      -0.248718       5.549750
       116      -0.251528       5.552564
       117      -0.259977       5.560997
       118      -0.269351       5.570365
       119      -0.276018       5.577061
       120      -0.284319       5.585401
       121      -0.302188       5.603274
       122      -0.331512       5.632553
       123      -0.363298       5.664275
       124      -0.383643       5.684578
       125      -0.382470       5.683412
       126      -0.359544       5.660532
       127      -0.322773       5.623820
       128      -0.282588       5.583689
       129      -0.248130       5.549262
       130      -0.222904       5.524045
       131      -0.205653       5.506813
       132      -0.197997       5.499184
       133      -0.203857       5.505044
       134      -0.220546       5.521705
       135      -0.238813       5.539965
       136      -0.254439       5.555622
       137      -0.272056       5.573257
       138      -0.294354       5.595545
       139      -0.318449       5.619635
       140      -0.343268       5.644444
       141      -0.366736       5.667866
       142      -0.378496       5.679570
       143      -0.364623       5.665689
       144      -0.320654       5.621779
       145      -0.256765       5.557992
       146      -0.192640       5.493965
       147      -0.146066       5.447431
       148      -0.121251       5.422598
       149      -0.108821       5.410139
       150      -0.097505       5.398834
       151      -0.087297       5.388680
       152      -0.089991       5.391421
       153      -0.116508       5.417927
       154      -0.164390       5.465749
       155      -0.220145       5.521460
       156      -0.275128       5.576430
       157      -0.329083       5.630333
       158      -0.373589       5.674739
       159      -0.388902       5.690007
       160      -0.366346       5.667502
       161      -0.319172       5.620423
       162      -0.269491       5.570796
       163      -0.228667       5.529970
       164      -0.194519       5.495839
       165      -0.168675       5.470049
       166      -0.162080       5.463477
       167      -0.180349       5.481701
       168      -0.215161       5.516448
       169      -0.254894       5.556142
       170      -0.294367       5.595591
       171      -0.331719       5.632918
       172      -0.364024       5.665207
       173      -0.389066       5.690246
       174      -0.407169       5.708360
       175      -0.420922       5.722109
