# Cycle: 5, status: ACC, move: ('sh', 2.2190821170806885, 15, 14)
#     Time      Potential        Kinetic
         0      -0.077126       5.897612
         1      -0.079710       5.900193
         2      -0.098496       5.918951
         3      -0.125604       5.946033
         4      -0.153772       5.974199
         5      -0.182548       6.003011
         6      -0.219757       6.040242
         7      -0.269492       6.089954
         8      -0.324276       6.144664
         9      -0.365235       6.185565
        10      -0.378742       6.199091
        11      -0.369421       6.189805
        12      -0.346107       6.166509
        13      -0.312039       6.132470
        14      -0.272757       6.093251
        15      -0.240556       6.061072
        16      -0.220226       6.040736
        17      -0.210351       6.030855
        18      -0.210401       6.030896
        19      -0.219608       6.040078
        20      -0.233574       6.054009
        21      -0.244414       6.064802
        22      -0.240869       6.061227
        23      -0.215994       6.036386
        24      -0.177404       5.997878
        25      -0.143731       5.964260
        26      -0.126951       5.947481
        27      -0.126253       5.946779
        28      -0.139314       5.959846
        29      -0.166836       5.987360
        30      -0.206942       6.027433
        31      -0.252059       6.072499
        32      -0.290774       6.111170
        33      -0.314615       6.135016
        34      -0.328455       6.148888
        35      -0.344188       6.164595
        36      -0.360440       6.180771
        37      -0.363244       6.183519
        38      -0.342979       6.163267
        39      -0.305389       6.125719
        40      -0.261695       6.082050
        41      -0.218304       6.038689
        42      -0.181743       6.002170
        43      -0.162042       5.982515
        44      -0.170862       5.991326
        45      -0.208453       6.028836
        46      -0.259010       6.079305
        47      -0.306830       6.127104
        48      -0.353257       6.173541
        49      -0.407164       6.227400
        50      -0.461227       6.281342
        51      -0.490435       6.310495
        52      -0.482818       6.302911
        53      -0.447792       6.267952
        54      -0.401376       6.221576
        55      -0.352189       6.172393
        56      -0.298939       6.119147
        57      -0.240097       6.060353
        58      -0.184941       6.005267
        59      -0.148625       5.968981
        60      -0.137145       5.957476
        61      -0.143830       5.964124
        62      -0.160089       5.980354
        63      -0.179821       6.000040
        64      -0.194319       6.014478
        65      -0.192472       6.012600
        66      -0.169221       5.989352
        67      -0.127600       5.947776
        68      -0.079120       5.899354
        69      -0.037489       5.857763
        70      -0.010823       5.831099
        71       0.000744       5.819536
        72      -0.005479       5.825780
        73      -0.038573       5.858844
        74      -0.097366       5.917503
        75      -0.158644       5.978659
        76      -0.201410       6.021392
        77      -0.225518       6.045517
        78      -0.242406       6.062419
        79      -0.260812       6.080805
        80      -0.278988       6.098932
        81      -0.286421       6.106329
        82      -0.275794       6.095733
        83      -0.254131       6.074089
        84      -0.226579       6.046537
        85      -0.194176       6.014189
        86      -0.169802       5.989870
        87      -0.165707       5.985753
        88      -0.176047       5.996036
        89      -0.187004       6.006983
        90      -0.196089       6.016094
        91      -0.210397       6.030398
        92      -0.230776       6.050740
        93      -0.250391       6.070320
        94      -0.261699       6.081594
        95      -0.257244       6.077151
        96      -0.239868       6.059831
        97      -0.221758       6.041756
        98      -0.209900       6.029897
        99      -0.202929       6.022942
       100      -0.204399       6.024459
       101      -0.226163       6.046231
       102      -0.271668       6.091647
       103      -0.323064       6.142959
       104      -0.362943       6.182823
       105      -0.390205       6.210095
       106      -0.409318       6.229188
       107      -0.416635       6.236468
       108      -0.403304       6.223137
       109      -0.367532       6.187409
       110      -0.318124       6.138070
       111      -0.268170       6.088138
       112      -0.219629       6.039588
       113      -0.167077       5.987064
       114      -0.114814       5.934855
       115      -0.074423       5.894482
       116      -0.050929       5.870971
       117      -0.041819       5.861849
       118      -0.045941       5.865974
       119      -0.064960       5.884978
       120      -0.096571       5.916546
       121      -0.132549       5.952484
       122      -0.164748       5.984645
       123      -0.186799       6.006692
       124      -0.201178       6.021113
       125      -0.219973       6.039931
       126      -0.249263       6.069182
       127      -0.279802       6.099690
       128      -0.303062       6.122981
       129      -0.325883       6.145852
       130      -0.360684       6.180643
       131      -0.405761       6.225653
       132      -0.447738       6.267598
       133      -0.479840       6.299687
       134      -0.500281       6.320120
       135      -0.507846       6.327668
       136      -0.498112       6.317917
       137      -0.466028       6.285861
       138      -0.418049       6.237962
       139      -0.372020       6.191950
       140      -0.333187       6.153092
       141      -0.296936       6.116855
       142      -0.267127       6.087077
       143      -0.252135       6.072077
       144      -0.250491       6.070384
       145      -0.250817       6.070682
       146      -0.246585       6.066476
       147      -0.244388       6.064316
       148      -0.255018       6.074960
       149      -0.283041       6.102936
       150      -0.318795       6.138616
       151      -0.346643       6.166435
       152      -0.361917       6.181733
       153      -0.373209       6.193050
       154      -0.389656       6.209489
       155      -0.412570       6.232371
       156      -0.436604       6.256369
       157      -0.455203       6.274945
       158      -0.464114       6.283842
       159      -0.461434       6.281173
       160      -0.451740       6.271542
       161      -0.450203       6.270020
       162      -0.462141       6.281910
       163      -0.476799       6.296505
       164      -0.479271       6.298950
       165      -0.463698       6.283404
       166      -0.437852       6.257619
       167      -0.417021       6.236815
       168      -0.409117       6.228893
       169      -0.410832       6.230562
       170      -0.412396       6.232103
       171      -0.409494       6.229204
       172      -0.403311       6.223006
       173      -0.390810       6.210500
       174      -0.370214       6.189941
       175      -0.349916       6.169697
       176      -0.342241       6.162030
       177      -0.348377       6.168114
       178      -0.355363       6.175044
       179      -0.349879       6.169553
       180      -0.331239       6.150949
       181      -0.310641       6.130389
       182      -0.300702       6.120468
       183      -0.308632       6.128372
       184      -0.330736       6.150424
       185      -0.356141       6.175780
       186      -0.373813       6.193418
       187      -0.376048       6.195641
       188      -0.360485       6.180099
       189      -0.333427       6.153089
       190      -0.307182       6.126861
       191      -0.286776       6.106439
       192      -0.269321       6.088983
       193      -0.254436       6.074113
       194      -0.244801       6.064465
       195      -0.236435       6.056084
       196      -0.224168       6.043839
       197      -0.211607       6.031319
       198      -0.206548       6.026265
       199      -0.208570       6.028259
       200      -0.208228       6.027879
       201      -0.194457       6.014114
       202      -0.166849       5.986563
       203      -0.137659       5.957435
       204      -0.121490       5.941291
       205      -0.123976       5.943745
       206      -0.137647       5.957369
       207      -0.151684       5.971382
       208      -0.161309       5.981006
       209      -0.167552       5.987252
       210      -0.172314       5.992028
       211      -0.180772       6.000516
       212      -0.200675       6.020414
       213      -0.231729       6.051435
       214      -0.266490       6.086160
       215      -0.296642       6.116298
       216      -0.318883       6.138539
       217      -0.333969       6.153646
       218      -0.347699       6.167401
       219      -0.366005       6.185694
       220      -0.385780       6.205415
       221      -0.394952       6.214565
       222      -0.389029       6.208672
       223      -0.375354       6.195016
       224      -0.360450       6.180125
       225      -0.349734       6.169421
       226      -0.348200       6.167872
       227      -0.354151       6.173774
       228      -0.357271       6.176853
       229      -0.348941       6.168539
       230      -0.333583       6.153219
       231      -0.320660       6.140300
       232      -0.312078       6.131710
       233      -0.306193       6.125807
       234      -0.300466       6.120080
       235      -0.298465       6.118106
       236      -0.311053       6.130697
       237      -0.343924       6.163516
       238      -0.388963       6.208477
       239      -0.431530       6.250987
       240      -0.461966       6.281382
       241      -0.474500       6.293874
       242      -0.463256       6.282630
       243      -0.431769       6.251190
       244      -0.393831       6.213297
       245      -0.361222       6.180697
       246      -0.335847       6.155303
       247      -0.311980       6.131433
       248      -0.287921       6.107423
       249      -0.275405       6.094955
       250      -0.286032       6.105554
       251      -0.313577       6.133034
       252      -0.343358       6.162783
       253      -0.369012       6.188437
       254      -0.391868       6.211264
       255      -0.406042       6.225376
       256      -0.397651       6.216954
       257      -0.359623       6.178962
       258      -0.300768       6.120179
       259      -0.238689       6.058156
       260      -0.186215       6.005691
       261      -0.145412       5.964892
       262      -0.116710       5.936206
       263      -0.105046       5.924559
       264      -0.116716       5.936211
       265      -0.151146       5.970590
       266      -0.201296       6.020686
       267      -0.260398       6.079734
       268      -0.322596       6.141872
       269      -0.380388       6.199608
       270      -0.426357       6.245532
       271      -0.454084       6.273233
       272      -0.460560       6.279720
       273      -0.449528       6.268706
       274      -0.424759       6.243932
       275      -0.383430       6.202608
       276      -0.324728       6.143955
       277      -0.259639       6.078951
       278      -0.208861       6.028224
       279      -0.186597       6.005948
       280      -0.191850       6.011129
       281      -0.209827       6.029037
       282      -0.226453       6.045636
       283      -0.236573       6.055729
       284      -0.234303       6.053405
       285      -0.207737       6.026837
       286      -0.155967       5.975139
       287      -0.095158       5.914401
