# Cycle: 0, status: ACC, move: ('ld', 0, 0, 0)
#     Time      Potential        Kinetic
         0            nan            nan
         1            nan            nan
         2            nan            nan
         3            nan            nan
         4            nan            nan
         5            nan            nan
         6            nan            nan
         7            nan            nan
         8            nan            nan
         9            nan            nan
        10            nan            nan
# Cycle: 1, status: ACC, move: ('sh', -1.0, 4, 114)
#     Time      Potential        Kinetic
         0      -1.103933       0.812662
         1      -1.205259       0.699527
         2      -1.295389       0.596324
         3      -1.377781       0.595081
         4      -1.460971       0.841230
         5      -1.547909       0.804595
         6      -1.626242       0.823580
         7      -1.694295       0.737041
         8      -1.761336       0.845915
         9      -1.825688       0.916407
        10      -1.886854       1.094875
        11      -1.943758       1.301248
        12      -1.992571       1.289058
        13      -2.032829       1.314504
        14      -2.065376       1.210130
        15      -2.092054       1.316317
        16      -2.111335       1.293173
        17      -2.127659       1.327412
        18      -2.139878       1.295489
        19      -2.145877       1.413510
        20      -2.146567       1.428115
        21      -2.148318       1.382675
        22      -2.147838       1.407766
        23      -2.146075       1.414800
        24      -2.152821       1.405332
        25      -2.166622       1.429102
        26      -2.180287       1.448246
        27      -2.188788       1.480092
        28      -2.202590       1.508033
        29      -2.214389       1.517555
        30      -2.211186       1.539271
        31      -2.218957       1.566192
        32      -2.237147       1.666684
        33      -2.266730       1.928529
        34      -2.308422       1.965238
        35      -2.346092       2.056582
        36      -2.380093       2.067369
        37      -2.408904       1.979302
        38      -2.427319       1.967502
        39      -2.436676       2.017202
        40      -2.441943       2.124675
        41      -2.439365       2.026796
        42      -2.425352       2.103006
        43      -2.398933       2.114211
        44      -2.361707       2.315392
        45      -2.308410       2.285888
        46      -2.236574       2.277525
        47      -2.145252       2.146764
        48      -2.036585       2.059357
        49      -1.910065       1.806487
        50      -1.771449       1.436196
        51      -1.630879       1.217116
        52      -1.488187       1.064483
        53      -1.339720       0.952470
        54      -1.197380       0.761982
        55      -1.056757       0.632000
        56      -0.925226       0.588726
        57      -0.810366       0.388922
        58      -0.729814       0.346166
        59      -0.678160       0.268631
        60      -0.648142       0.312433
        61      -0.657279       0.384941
        62      -0.671026       0.164449
        63      -0.697496       0.303419
        64      -0.749402       0.220372
        65      -0.801303       0.231095
        66      -0.869622       0.384839
        67      -0.965343       0.631719
        68      -1.067887       0.674522
        69      -1.177437       0.776619
        70      -1.286255       0.776902
        71      -1.388680       0.773849
        72      -1.482036       0.715869
        73      -1.571994       1.045517
        74      -1.662745       1.110303
        75      -1.739509       1.119197
        76      -1.810382       1.254375
        77      -1.873811       1.694330
        78      -1.927425       1.757953
        79      -1.965697       1.788376
        80      -1.990950       1.655825
        81      -2.003534       1.954391
        82      -2.004678       1.980703
        83      -1.995053       1.768448
        84      -1.976122       1.839538
        85      -1.948489       1.969404
        86      -1.913409       1.762686
        87      -1.873643       1.669976
        88      -1.829550       1.756839
        89      -1.781515       1.834442
        90      -1.730472       1.754257
        91      -1.681161       1.243676
        92      -1.631650       1.300812
        93      -1.582453       1.312534
        94      -1.534025       1.135703
        95      -1.485346       1.335815
        96      -1.438869       1.127943
        97      -1.393547       1.145812
        98      -1.352006       0.947313
        99      -1.312603       1.088384
       100      -1.272712       1.168404
       101      -1.233585       1.276708
       102      -1.195908       1.433922
       103      -1.160424       1.532787
       104      -1.127262       1.481061
       105      -1.099743       1.049409
       106      -1.077201       0.960863
       107      -1.058811       0.829380
       108      -1.043521       0.752366
       109      -1.030286       0.863292
       110      -1.019222       0.823069
       111      -1.011043       0.642389
       112      -1.005182       0.804227
       113      -1.001283       0.835231
       114      -1.000000       0.711678
       115      -1.001078       0.654394
       116      -1.004083       0.680858
       117      -1.009918       0.916650
       118      -1.019575       1.016206
       119      -1.033100       1.208823
       120      -1.050331       1.502794
       121      -1.073022       1.940336
       122      -1.101681       2.093756
       123      -1.134668       2.128485
       124      -1.171952       2.120449
       125      -1.212966       2.107375
       126      -1.258149       2.456466
       127      -1.306180       2.050337
       128      -1.355467       2.060240
       129      -1.408067       2.066485
       130      -1.464018       2.706286
       131      -1.526213       3.366782
       132      -1.590520       4.043868
       133      -1.653113       3.873256
       134      -1.711765       4.147215
       135      -1.765353       4.374177
       136      -1.811413       4.060123
       137      -1.848900       3.691974
       138      -1.876123       3.784375
       139      -1.891510       4.237433
       140      -1.885619       4.525342
       141      -1.861419       4.328866
       142      -1.813296       4.045693
       143      -1.745652       4.205155
       144      -1.650496       3.919617
       145      -1.527987       4.449253
       146      -1.369583       4.123715
       147      -1.184717       3.916729
       148      -0.969656       4.173147
       149      -0.697945       4.419072
       150      -0.414664       4.078007
       151      -0.105553       3.857349
       152       0.202868       3.663938
       153       0.509828       3.117206
       154       0.775266       2.661675
       155       0.991995       2.392440
       156       1.148280       1.977763
       157       1.211993       1.814606
       158       1.222525       1.973626
       159       1.224874       2.009831
       160       1.155081       1.962269
       161       0.990218       2.098222
       162       0.782732       2.273769
       163       0.542606       2.485428
       164       0.258057       2.875448
       165      -0.078600       3.161305
       166      -0.403580       3.567348
       167      -0.732736       3.901160
       168      -1.000989       3.715052
       169      -1.214304       3.947776
       170      -1.393487       4.045881
       171      -1.547726       4.198557
       172      -1.645109       3.940864
       173      -1.708068       4.346429
       174      -1.751335       4.383939
       175      -1.774983       4.868853
       176      -1.783064       4.674698
       177      -1.777609       5.109533
       178      -1.761389       5.433663
# Cycle: 2, status: ACC, move: ('ld', 0, 0, 0)
#     Time      Potential        Kinetic
         0      -0.962754       0.127789
         1      -0.964620       0.076417
         2      -0.966018       0.049152
         3      -0.967303       0.029888
         4      -0.968793       0.038031
         5      -0.970364       0.002950
         6      -0.970450       0.000000
         7            nan            nan
# Cycle: 3, status: ACC, move: ('ld', 0, 0, 0)
#     Time      Potential        Kinetic
         0      -0.962754       0.127789
         1      -0.964620       0.076417
         2      -0.966018       0.049152
         3      -0.967303       0.029888
         4      -0.968793       0.038031
         5      -0.970364       0.002950
         6      -0.970450       0.000000
         7            nan            nan
# Cycle: 4, status: ACC, move: ('sh', -0.9026047668239445, 2, 1)
#     Time      Potential        Kinetic
         0      -0.941657       1.382505
         1      -0.966018       1.481323
         2      -0.985162       1.484310
         3      -0.998300       1.396973
         4      -1.005368       1.495369
         5      -1.003831       1.585900
         6      -0.992218       1.568567
         7      -0.970104       1.501618
         8      -0.939814       1.399581
         9      -0.897985       1.422045
        10      -0.839270       1.441774
        11      -0.769748       1.363267
        12      -0.689408       1.199573
        13      -0.602895       1.143593
        14      -0.503020       1.116022
        15      -0.390345       1.057915
        16      -0.266249       0.988276
        17      -0.130413       1.021199
        18       0.007285       0.846553
        19       0.150139       0.828084
        20       0.293336       0.755426
        21       0.419660       0.397020
        22       0.517946       0.300264
        23       0.594462       0.252550
        24       0.642605       0.177912
        25       0.663189       0.142204
        26       0.662493       0.149369
        27       0.630942       0.165300
        28       0.559761       0.350045
        29       0.446758       0.508712
        30       0.320469       0.544894
        31       0.185865       0.684805
        32       0.031161       0.951529
        33      -0.135989       1.093975
        34      -0.302305       1.169728
        35      -0.471606       1.574676
        36      -0.644092       2.029456
        37      -0.810932       2.069960
        38      -0.951468       2.046803
        39      -1.078250       2.219457
        40      -1.191491       2.248481
        41      -1.288305       2.293462
        42      -1.367913       2.404533
        43      -1.433885       2.376206
        44      -1.486862       2.629086
        45      -1.527398       2.336870
        46      -1.557373       2.377793
        47      -1.579254       2.384631
        48      -1.593705       1.969233
# Cycle: 5, status: ACC, move: ('sh', -1.5237052922192282, 27, 19)
#     Time      Potential        Kinetic
         0      -1.756555       2.513465
         1      -1.731209       2.570412
         2      -1.697830       2.693154
         3      -1.655328       2.579316
         4      -1.602979       2.524192
         5      -1.539141       2.790554
         6      -1.459505       2.506367
         7      -1.367966       2.641834
         8      -1.258339       2.539407
         9      -1.139846       2.080519
        10      -1.013266       1.960055
        11      -0.873848       2.057844
        12      -0.711486       2.313968
        13      -0.532390       2.004339
        14      -0.349334       1.870707
        15      -0.157857       1.569716
        16       0.043160       1.621820
        17       0.245204       1.536517
        18       0.442643       1.309447
        19       0.630942       1.116757
        20       0.801532       1.006645
        21       0.937680       0.857939
        22       1.038470       0.649153
        23       1.092139       0.435584
        24       1.098040       0.420920
        25       1.058211       0.422167
        26       0.992012       0.510928
        27       0.929904       0.672561
        28       0.837867       0.710084
        29       0.727395       0.825070
        30       0.595900       0.949013
        31       0.434360       1.093143
        32       0.264366       1.297607
        33       0.087914       1.411738
        34      -0.083584       1.611039
        35      -0.255107       1.784028
        36      -0.416653       1.894125
        37      -0.561978       2.025914
        38      -0.693000       2.150444
        39      -0.809694       2.326864
        40      -0.906326       2.312099
        41      -0.984778       2.442106
        42      -1.045819       2.445221
        43      -1.090167       2.460676
        44      -1.118075       2.709631
        45      -1.127671       2.760054
        46      -1.127708       2.395070
        47      -1.123340       2.321880
