# Cycle: 0, status: EXP, move: ('ld', 0, 0, 0)
#     Time      Potential        Kinetic
         0            nan            nan
         1            nan            nan
         2            nan            nan
         3            nan            nan
         4            nan            nan
         5            nan            nan
         6            nan            nan
         7            nan            nan
# Cycle: 1, status: EXP, move: ('sh', -0.2, 6, 0)
#     Time      Potential        Kinetic
         0      -0.078400       0.057442
         1      -0.079247       0.052075
         2      -0.081896       0.095843
         3      -0.085576       0.063835
         4      -0.088774       0.155180
         5      -0.095192       0.218210
         6      -0.102019       0.203213
         7      -0.108618       0.107343
         8      -0.113675       0.054312
         9      -0.116582       0.012215
        10      -0.116428       0.029666
        11      -0.111904       0.120941
        12      -0.106718       0.085362
        13      -0.103543       0.054549
        14      -0.101022       0.071573
        15      -0.099880       0.032942
        16      -0.100495       0.031484
        17      -0.101277       0.061093
        18      -0.101672       0.034055
        19      -0.102696       0.033855
        20      -0.105398       0.029006
        21      -0.107156       0.048692
        22      -0.108949       0.053711
        23      -0.110836       0.083010
        24      -0.111122       0.131704
        25      -0.114006       0.047152
        26      -0.118475       0.050142
        27      -0.122909       0.091470
        28      -0.125756       0.122177
        29      -0.129377       0.115176
        30      -0.133960       0.125980
        31      -0.139132       0.120328
        32      -0.146399       0.085007
        33      -0.154381       0.105431
        34      -0.162376       0.131630
        35      -0.170737       0.148051
        36      -0.179376       0.187044
        37      -0.188750       0.280061
        38      -0.199516       0.161177
        39      -0.212052       0.152078
        40      -0.225966       0.172584
        41      -0.241010       0.178616
        42      -0.256693       0.193398
        43      -0.273419       0.211845
        44      -0.291130       0.226551
        45      -0.309802       0.297420
        46      -0.329634       0.356840
        47      -0.351144       0.518570
        48      -0.374491       0.542837
        49      -0.400090       0.681881
        50      -0.427927       0.444774
        51      -0.456904       0.365472
        52      -0.487497       0.449389
        53      -0.520183       0.443361
        54      -0.554473       0.447531
        55      -0.590517       0.474953
        56      -0.628348       0.504821
        57      -0.667817       0.567455
        58      -0.709039       0.615618
        59      -0.752086       0.779622
        60      -0.797426       0.838390
        61      -0.845322       0.941418
        62      -0.895735       0.890676
        63      -0.948470       0.952766
        64      -1.003436       0.970499
        65      -1.060460       1.084945
        66      -1.119708       1.446737
        67      -1.181048       1.578304
        68      -1.244009       1.686915
        69      -1.307182       1.491950
        70      -1.369981       1.360368
        71      -1.432245       1.383207
        72      -1.493414       1.469105
        73      -1.553043       1.523858
        74      -1.610229       1.744028
        75      -1.664193       1.485504
        76      -1.714752       1.517619
        77      -1.761136       1.482985
        78      -1.803293       1.504099
        79      -1.841300       1.446894
        80      -1.876494       1.466500
        81      -1.908477       1.569512
        82      -1.936373       1.560065
        83      -1.957349       1.504958
        84      -1.971233       1.529150
        85      -1.975889       1.464048
        86      -1.972771       1.444817
        87      -1.957730       1.437578
        88      -1.932707       1.379442
        89      -1.900209       1.317412
        90      -1.860894       1.260865
        91      -1.814309       1.203317
        92      -1.763683       1.160551
        93      -1.706449       1.084050
        94      -1.644938       1.011680
        95      -1.579183       0.991331
        96      -1.510061       0.902171
        97      -1.438907       0.798829
        98      -1.366830       0.707492
# Cycle: 2, status: EXP, move: ('sh', -1.240856581750028, 92, 0)
#     Time      Potential        Kinetic
         0      -1.763683       1.131314
         1      -1.740746       1.042604
         2      -1.711616       1.119508
         3      -1.682282       0.798835
         4      -1.656443       0.574468
         5      -1.630896       0.730801
         6      -1.605048       0.789328
         7      -1.578922       0.700077
         8      -1.554610       0.751830
         9      -1.529613       0.754634
        10      -1.509913       0.775326
        11      -1.492687       0.698310
        12      -1.485684       0.657047
        13      -1.487066       0.524449
        14      -1.495760       0.587892
        15      -1.511120       0.559271
        16      -1.536548       0.492041
        17      -1.564215       0.566389
        18      -1.603149       0.542403
        19      -1.654398       0.592667
        20      -1.701244       0.619525
        21      -1.744926       0.653794
        22      -1.788809       0.688087
        23      -1.830872       0.742379
        24      -1.867771       0.752678
        25      -1.899979       0.756099
        26      -1.927526       0.774627
        27      -1.951320       0.793445
        28      -1.974413       0.803354
        29      -1.995687       0.832121
        30      -2.014653       0.832065
        31      -2.031411       0.898564
        32      -2.045419       0.885806
        33      -2.056831       0.945890
        34      -2.064382       1.209606
        35      -2.067463       1.284662
        36      -2.065266       1.454272
        37      -2.059546       1.457894
        38      -2.052867       1.282194
        39      -2.047583       1.142875
        40      -2.040269       1.376865
        41      -2.030744       1.266815
        42      -2.025591       1.103870
        43      -2.021173       1.073483
        44      -2.020705       1.063723
        45      -2.019286       1.227500
        46      -2.017237       1.184600
        47      -2.017668       1.150411
        48      -2.023563       0.958943
        49      -2.031220       0.966258
        50      -2.041121       0.981572
        51      -2.052917       0.950794
        52      -2.066590       0.905169
        53      -2.083272       0.933841
        54      -2.101433       0.934352
        55      -2.117935       0.965254
        56      -2.136168       0.929746
        57      -2.158542       0.949804
        58      -2.180179       0.957852
        59      -2.197420       0.951852
        60      -2.208898       0.953575
        61      -2.220082       0.954421
        62      -2.226363       0.947492
        63      -2.231995       0.951274
        64      -2.233917       0.938339
        65      -2.230892       0.915352
        66      -2.223086       0.908336
        67      -2.210199       0.892752
        68      -2.193830       0.881732
        69      -2.170759       0.850595
        70      -2.141802       0.783301
        71      -2.106710       0.709639
        72      -2.066335       0.661053
        73      -2.021547       0.620068
        74      -1.974084       0.558905
        75      -1.925688       0.588795
        76      -1.874745       0.482398
        77      -1.822276       0.439232
        78      -1.769043       0.360580
        79      -1.716809       0.304885
        80      -1.666672       0.220872
        81      -1.620048       0.190414
        82      -1.577542       0.130922
        83      -1.541298       0.091376
        84      -1.511713       0.063547
        85      -1.488877       0.039419
        86      -1.474109       0.023534
        87      -1.468563       0.023778
        88      -1.470810       0.018721
        89      -1.481271       0.036021
        90      -1.499843       0.050158
        91      -1.525904       0.075351
        92      -1.558779       0.174144
        93      -1.596680       0.238210
        94      -1.639153       0.182176
        95      -1.686935       0.226560
        96      -1.739270       0.281001
        97      -1.792565       0.342204
        98      -1.845932       0.405917
# Cycle: 3, status: EXP, move: ('sh', -0.3153027389079116, 77, 0)
#     Time      Potential        Kinetic
         0      -1.822276       0.472311
         1      -1.877343       0.440279
         2      -1.932207       0.478737
         3      -1.985609       0.532041
         4      -2.036637       0.571771
         5      -2.085950       0.618765
         6      -2.130763       0.653976
         7      -2.172694       0.686465
         8      -2.215376       0.860058
         9      -2.257204       0.908723
        10      -2.295564       0.854716
        11      -2.328935       0.807739
        12      -2.358661       0.854258
        13      -2.385714       0.872569
        14      -2.410869       0.908839
        15      -2.437449       1.113774
        16      -2.464227       1.361796
        17      -2.493904       1.512685
        18      -2.522010       1.434653
        19      -2.546164       1.548659
        20      -2.570206       1.647035
        21      -2.594357       1.673734
        22      -2.615516       1.698741
        23      -2.633608       1.534569
        24      -2.648324       1.406149
        25      -2.661517       1.595185
        26      -2.673090       1.923195
        27      -2.680872       1.644152
        28      -2.684410       1.519311
        29      -2.683349       2.060030
        30      -2.676007       2.001796
        31      -2.660703       2.016319
        32      -2.636760       1.757038
        33      -2.603235       2.127031
        34      -2.557450       1.910483
        35      -2.503339       1.761870
        36      -2.439119       1.850020
        37      -2.356413       2.054451
        38      -2.256743       1.904230
        39      -2.141742       1.891587
        40      -2.012279       1.655084
        41      -1.879944       1.303688
        42      -1.741030       1.285754
        43      -1.603880       0.859290
        44      -1.475409       0.626854
        45      -1.374236       0.265852
        46      -1.293628       0.188330
        47      -1.221402       0.146258
        48      -1.166306       0.041758
        49      -1.137379       0.022230
        50      -1.132137       0.029171
        51      -1.155701       0.038175
        52      -1.184429       0.073806
        53      -1.227176       0.111912
        54      -1.289315       0.136937
        55      -1.360421       0.241633
        56      -1.451595       0.425705
        57      -1.556911       0.584523
        58      -1.675644       1.058181
        59      -1.814580       1.535843
        60      -1.947234       1.410901
        61      -2.064162       1.319679
        62      -2.164117       1.356903
        63      -2.256480       1.443820
        64      -2.337263       1.338430
        65      -2.406860       1.271617
        66      -2.467207       1.479287
        67      -2.519500       2.051684
        68      -2.565449       2.051914
        69      -2.599470       1.613405
        70      -2.624220       1.747734
        71      -2.641642       2.101821
        72      -2.651757       1.602526
        73      -2.656287       1.673242
        74      -2.655964       1.889138
        75      -2.649620       1.835223
        76      -2.639925       1.901450
        77      -2.622806       2.339544
        78      -2.599748       2.213804
        79      -2.577379       1.571206
        80      -2.558850       1.235380
        81      -2.543960       0.936663
        82      -2.531042       0.836901
        83      -2.518142       0.873854
        84      -2.498810       0.998827
        85      -2.479093       0.936227
        86      -2.459663       0.823437
        87      -2.440383       0.722134
        88      -2.419278       0.675260
        89      -2.405007       0.571829
        90      -2.386045       0.622643
        91      -2.367437       0.526495
        92      -2.349778       0.547237
        93      -2.328337       0.556337
        94      -2.305501       0.465189
        95      -2.280429       0.478735
        96      -2.251546       0.470927
        97      -2.227355       0.406729
        98      -2.207729       0.355957
# Cycle: 4, status: EXP, move: ('sh', -1.3317848253630367, 59, 0)
#     Time      Potential        Kinetic
         0      -1.814580       0.794737
         1      -1.758599       0.754600
         2      -1.695689       0.619740
         3      -1.625143       0.546628
         4      -1.557036       0.484307
         5      -1.519675       0.550920
         6      -1.493718       0.432325
         7      -1.472574       0.402100
         8      -1.452747       0.355282
         9      -1.444771       0.316300
        10      -1.440852       0.341524
        11      -1.452362       0.400482
        12      -1.475213       0.544543
        13      -1.506563       0.428136
        14      -1.544657       0.581391
        15      -1.582189       0.534600
        16      -1.617265       0.372723
        17      -1.657795       0.564179
        18      -1.695877       0.534728
        19      -1.734939       0.543278
        20      -1.769516       0.343285
        21      -1.797117       0.335161
        22      -1.829358       0.551674
        23      -1.861206       0.513696
        24      -1.890255       0.723080
        25      -1.917251       0.649549
        26      -1.940194       0.571790
        27      -1.961146       0.725873
        28      -1.979825       0.859623
        29      -1.995258       0.957914
        30      -2.007749       0.733782
        31      -2.017845       0.740093
        32      -2.026160       0.685428
        33      -2.033637       0.568702
        34      -2.040449       0.590262
        35      -2.046123       0.720816
        36      -2.051914       0.522005
        37      -2.060067       0.508446
        38      -2.068334       0.664202
        39      -2.074491       0.788237
        40      -2.078007       1.197680
        41      -2.077990       1.472103
        42      -2.076006       1.788051
        43      -2.073406       1.193740
        44      -2.071994       1.589583
        45      -2.067678       1.462972
        46      -2.065535       1.441990
        47      -2.064005       1.303155
        48      -2.067652       1.178391
        49      -2.065427       1.420877
        50      -2.064511       1.070381
        51      -2.066743       1.075184
        52      -2.069018       1.083270
        53      -2.066506       1.169770
        54      -2.063970       1.208954
        55      -2.053592       1.259134
        56      -2.036190       1.273119
        57      -2.018333       1.274906
        58      -1.985662       1.527458
        59      -1.938875       1.825725
        60      -1.879057       1.909368
        61      -1.807208       1.706434
        62      -1.725431       1.870863
        63      -1.629667       1.752085
        64      -1.517550       1.916240
        65      -1.398395       1.665949
        66      -1.271447       1.637537
        67      -1.144249       1.196246
        68      -1.019165       1.306405
        69      -0.882527       1.177155
        70      -0.764646       0.743665
        71      -0.664622       0.650449
        72      -0.578764       0.515061
        73      -0.508063       0.469777
        74      -0.437061       0.573715
        75      -0.378263       0.403328
        76      -0.357011       0.346083
        77      -0.362978       0.349726
        78      -0.390653       0.379699
        79      -0.455001       0.481418
        80      -0.551747       0.588901
        81      -0.653080       0.568730
        82      -0.748143       0.653666
        83      -0.844433       0.683537
        84      -0.958921       0.780986
        85      -1.067009       0.887297
        86      -1.180210       0.947095
        87      -1.295578       1.164290
        88      -1.409162       1.294886
        89      -1.524010       1.441709
        90      -1.625737       1.449198
        91      -1.719261       1.557091
        92      -1.798898       1.564881
        93      -1.865622       1.463613
        94      -1.923432       1.805707
        95      -1.970707       1.867686
        96      -2.005667       1.786530
        97      -2.028705       1.783546
        98      -2.039701       1.884181
# Cycle: 5, status: EXP, move: ('sh', -0.5553243234285221, 51, 0)
#     Time      Potential        Kinetic
         0      -2.066743       0.411480
         1      -2.064873       0.439915
         2      -2.064909       0.388618
         3      -2.066483       0.696514
         4      -2.072603       0.596934
         5      -2.078493       0.394983
         6      -2.082064       0.309004
         7      -2.083247       0.231826
         8      -2.084262       0.225136
         9      -2.088042       0.217288
        10      -2.094791       0.261533
        11      -2.103312       0.236711
        12      -2.112150       0.240694
        13      -2.125035       0.343895
        14      -2.139357       0.267382
        15      -2.158251       0.530265
        16      -2.184676       0.851664
        17      -2.214330       0.989446
        18      -2.243651       1.002036
        19      -2.274410       1.096549
        20      -2.305165       1.024287
        21      -2.334733       0.903533
        22      -2.363165       0.945879
        23      -2.388961       0.403349
        24      -2.413212       0.743042
        25      -2.437402       0.751029
        26      -2.460007       0.857108
        27      -2.480625       0.886210
        28      -2.499101       0.683022
        29      -2.515695       0.674364
        30      -2.529205       0.778402
        31      -2.537601       1.013891
        32      -2.542066       0.979829
        33      -2.541133       0.990460
        34      -2.533239       0.980090
        35      -2.519850       0.741377
        36      -2.510456       0.580826
        37      -2.502953       0.585822
        38      -2.487658       0.717604
        39      -2.466454       0.736357
        40      -2.441017       0.641510
        41      -2.416680       0.532736
        42      -2.388573       0.576746
        43      -2.357324       0.531135
        44      -2.320263       0.554232
        45      -2.278651       0.580222
        46      -2.227668       0.521836
        47      -2.190775       0.376618
        48      -2.164894       0.337740
        49      -2.152246       0.309778
        50      -2.139045       0.307268
        51      -2.125238       0.286060
        52      -2.121616       0.264296
        53      -2.108262       0.249881
        54      -2.104851       0.241209
        55      -2.101532       0.218123
        56      -2.101215       0.231398
        57      -2.098095       0.190616
        58      -2.079582       0.164785
        59      -2.065912       0.150958
        60      -2.064671       0.132819
        61      -2.076710       0.153636
        62      -2.091970       0.160805
        63      -2.111713       0.122745
        64      -2.135235       0.219313
        65      -2.189065       0.506975
        66      -2.239298       0.323556
        67      -2.297461       0.468536
        68      -2.361563       0.579324
